# E [GeV] - dJdE [m-2 s-1 sr-1 GeV-1] - stat. errors (SIBYLL+HD)
1.12e5 8.639e-10 0.002e-10
1.41e5 4.684e-10 0.001e-10
1.78e5 2.529e-10 0.001e-10
2.24e5 1.360e-10 0.001e-10
2.82e5 7.370e-11 0.004e-11
3.55e5 4.015e-11 0.003e-11
4.47e5 2.173e-11 0.002e-11
5.62e5 1.179e-11 0.001e-11
7.08e5 6.373e-12 0.007e-12
8.91e5 3.433e-12 0.005e-12
1.12e6 1.853e-12 0.003e-12
1.41e6 1.014e-12 0.002e-12
1.78e6 5.514e-13 0.014e-13
2.24e6 2.978e-13 0.009e-13
2.82e6 1.610e-13 0.006e-13
3.55e6 8.444e-14 0.038e-14
4.47e6 4.261e-14 0.024e-14
5.62e6 2.133e-14 0.015e-14
7.08e6 1.031e-14 0.009e-14
8.91e6 4.976e-15 0.058e-15
1.12e7 2.321e-15 0.035e-15
1.41e7 1.160e-15 0.022e-15
1.78e7 5.924e-16 0.141e-16
2.24e7 2.787e-16 0.086e-16
2.82e7 1.476e-16 0.056e-16
3.55e7 6.516e-17 0.331e-17
4.47e7 3.038e-17 0.202e-17
5.62e7 1.848e-17 0.140e-17
7.08e7 8.345e-18 0.840e-18
8.91e7 4.086e-18 0.524e-18
1.12e8 2.636e-18 0.375e-18
1.41e8 11.154e-19 2.174e-19
1.78e8 4.922e-19 1.287e-19